#ATLAS-CONF-2017-050, July 2017
#20170502_Atlas_bb-H-tautau_36.1fb-1
#
#Columns: Mh obs exp (pb, for sigma(pp->h)*BR(h->tau tau) by bb->h)

       200.0          0.9510           1.219    
       210.0          0.8048           1.084    
       220.0          0.6585          0.9490    
       230.0          0.5123          0.8140    
       240.0          0.3660          0.6790    
       250.0          0.2198          0.5439    
       260.0          0.2072          0.4978    
       270.0          0.1947          0.4516    
       280.0          0.1822          0.4054    
       290.0          0.1697          0.3592    
       300.0          0.1572          0.3130    
       310.0          0.1481          0.2835    
       320.0          0.1390          0.2539    
       330.0          0.1299          0.2243    
       340.0          0.1208          0.1947    
       350.0          0.1117          0.1652    
       360.0          0.1065          0.1531    
       370.0          0.1012          0.1411    
       380.0          0.9600E-01      0.1291    
       390.0          0.9077E-01      0.1170    
       400.0          0.8553E-01      0.1050    
       410.0          0.8112E-01      0.1001    
       420.0          0.7670E-01      0.9520E-01
       430.0          0.7228E-01      0.9031E-01
       440.0          0.6787E-01      0.8542E-01
       450.0          0.6345E-01      0.8053E-01
       460.0          0.5904E-01      0.7564E-01
       470.0          0.5462E-01      0.7075E-01
       480.0          0.5020E-01      0.6586E-01
       490.0          0.4579E-01      0.6097E-01
       500.0          0.4137E-01      0.5608E-01
       510.0          0.3974E-01      0.5354E-01
       520.0          0.3810E-01      0.5101E-01
       530.0          0.3647E-01      0.4847E-01
       540.0          0.3483E-01      0.4593E-01
       550.0          0.3320E-01      0.4340E-01
       560.0          0.3156E-01      0.4086E-01
       570.0          0.2993E-01      0.3832E-01
       580.0          0.2829E-01      0.3578E-01
       590.0          0.2666E-01      0.3325E-01
       600.0          0.2502E-01      0.3071E-01
       610.0          0.2392E-01      0.2956E-01
       620.0          0.2281E-01      0.2840E-01
       630.0          0.2170E-01      0.2725E-01
       640.0          0.2060E-01      0.2609E-01
       650.0          0.1949E-01      0.2494E-01
       660.0          0.1838E-01      0.2378E-01
       670.0          0.1728E-01      0.2262E-01
       680.0          0.1617E-01      0.2147E-01
       690.0          0.1507E-01      0.2031E-01
       700.0          0.1396E-01      0.1916E-01
       710.0          0.1342E-01      0.1856E-01
       720.0          0.1288E-01      0.1795E-01
       730.0          0.1234E-01      0.1735E-01
       740.0          0.1180E-01      0.1674E-01
       750.0          0.1125E-01      0.1614E-01
       760.0          0.1071E-01      0.1554E-01
       770.0          0.1017E-01      0.1493E-01
       780.0          0.9631E-02      0.1433E-01
       790.0          0.9090E-02      0.1372E-01
       800.0          0.8549E-02      0.1312E-01
       810.0          0.8386E-02      0.1285E-01
       820.0          0.8224E-02      0.1259E-01
       830.0          0.8062E-02      0.1232E-01
       840.0          0.7899E-02      0.1205E-01
       850.0          0.7737E-02      0.1179E-01
       860.0          0.7574E-02      0.1152E-01
       870.0          0.7412E-02      0.1125E-01
       880.0          0.7249E-02      0.1099E-01
       890.0          0.7087E-02      0.1072E-01
       900.0          0.6925E-02      0.1045E-01
       910.0          0.6762E-02      0.1019E-01
       920.0          0.6600E-02      0.9921E-02
       930.0          0.6437E-02      0.9655E-02
       940.0          0.6275E-02      0.9388E-02
       950.0          0.6112E-02      0.9121E-02
       960.0          0.5950E-02      0.8855E-02
       970.0          0.5788E-02      0.8588E-02
       980.0          0.5625E-02      0.8322E-02
       990.0          0.5463E-02      0.8055E-02
       1000.          0.5300E-02      0.7789E-02
       1010.          0.5267E-02      0.7711E-02
       1020.          0.5233E-02      0.7633E-02
       1030.          0.5199E-02      0.7555E-02
       1040.          0.5165E-02      0.7477E-02
       1050.          0.5131E-02      0.7399E-02
       1060.          0.5097E-02      0.7321E-02
       1070.          0.5064E-02      0.7243E-02
       1080.          0.5030E-02      0.7165E-02
       1090.          0.4996E-02      0.7087E-02
       1100.          0.4962E-02      0.7009E-02
       1110.          0.4928E-02      0.6931E-02
       1120.          0.4894E-02      0.6853E-02
       1130.          0.4861E-02      0.6775E-02
       1140.          0.4827E-02      0.6697E-02
       1150.          0.4793E-02      0.6619E-02
       1160.          0.4759E-02      0.6541E-02
       1170.          0.4725E-02      0.6463E-02
       1180.          0.4691E-02      0.6385E-02
       1190.          0.4658E-02      0.6307E-02
       1200.          0.4624E-02      0.6229E-02
       1210.          0.4607E-02      0.6203E-02
       1220.          0.4591E-02      0.6178E-02
       1230.          0.4575E-02      0.6153E-02
       1240.          0.4559E-02      0.6127E-02
       1250.          0.4542E-02      0.6102E-02
       1260.          0.4526E-02      0.6077E-02
       1270.          0.4510E-02      0.6051E-02
       1280.          0.4493E-02      0.6026E-02
       1290.          0.4477E-02      0.6000E-02
       1300.          0.4461E-02      0.5975E-02
       1310.          0.4445E-02      0.5950E-02
       1320.          0.4428E-02      0.5924E-02
       1330.          0.4412E-02      0.5899E-02
       1340.          0.4396E-02      0.5874E-02
       1350.          0.4379E-02      0.5848E-02
       1360.          0.4363E-02      0.5823E-02
       1370.          0.4347E-02      0.5797E-02
       1380.          0.4330E-02      0.5772E-02
       1390.          0.4314E-02      0.5747E-02
       1400.          0.4298E-02      0.5721E-02
       1410.          0.4282E-02      0.5696E-02
       1420.          0.4265E-02      0.5671E-02
       1430.          0.4249E-02      0.5645E-02
       1440.          0.4233E-02      0.5620E-02
       1450.          0.4216E-02      0.5594E-02
       1460.          0.4200E-02      0.5569E-02
       1470.          0.4184E-02      0.5544E-02
       1480.          0.4168E-02      0.5518E-02
       1490.          0.4151E-02      0.5493E-02
       1500.          0.4135E-02      0.5468E-02
       1510.          0.4141E-02      0.5472E-02
       1520.          0.4147E-02      0.5476E-02
       1530.          0.4154E-02      0.5480E-02
       1540.          0.4160E-02      0.5484E-02
       1550.          0.4166E-02      0.5488E-02
       1560.          0.4173E-02      0.5492E-02
       1570.          0.4179E-02      0.5496E-02
       1580.          0.4185E-02      0.5500E-02
       1590.          0.4191E-02      0.5505E-02
       1600.          0.4198E-02      0.5509E-02
       1610.          0.4204E-02      0.5513E-02
       1620.          0.4210E-02      0.5517E-02
       1630.          0.4217E-02      0.5521E-02
       1640.          0.4223E-02      0.5525E-02
       1650.          0.4229E-02      0.5529E-02
       1660.          0.4235E-02      0.5533E-02
       1670.          0.4242E-02      0.5537E-02
       1680.          0.4248E-02      0.5542E-02
       1690.          0.4254E-02      0.5546E-02
       1700.          0.4260E-02      0.5550E-02
       1710.          0.4267E-02      0.5554E-02
       1720.          0.4273E-02      0.5558E-02
       1730.          0.4279E-02      0.5562E-02
       1740.          0.4286E-02      0.5566E-02
       1750.          0.4292E-02      0.5570E-02
       1760.          0.4307E-02      0.5586E-02
       1770.          0.4323E-02      0.5602E-02
       1780.          0.4339E-02      0.5618E-02
       1790.          0.4354E-02      0.5633E-02
       1800.          0.4370E-02      0.5649E-02
       1810.          0.4385E-02      0.5665E-02
       1820.          0.4401E-02      0.5681E-02
       1830.          0.4417E-02      0.5696E-02
       1840.          0.4432E-02      0.5712E-02
       1850.          0.4448E-02      0.5728E-02
       1860.          0.4463E-02      0.5743E-02
       1870.          0.4479E-02      0.5759E-02
       1880.          0.4494E-02      0.5775E-02
       1890.          0.4510E-02      0.5791E-02
       1900.          0.4526E-02      0.5806E-02
       1910.          0.4541E-02      0.5822E-02
       1920.          0.4557E-02      0.5838E-02
       1930.          0.4572E-02      0.5854E-02
       1940.          0.4588E-02      0.5869E-02
       1950.          0.4604E-02      0.5885E-02
       1960.          0.4619E-02      0.5901E-02
       1970.          0.4635E-02      0.5917E-02
       1980.          0.4650E-02      0.5932E-02
       1990.          0.4666E-02      0.5948E-02
       2000.          0.4682E-02      0.5964E-02
       2010.          0.4699E-02      0.5989E-02
       2020.          0.4716E-02      0.6014E-02
       2030.          0.4733E-02      0.6039E-02
       2040.          0.4750E-02      0.6064E-02
       2050.          0.4767E-02      0.6089E-02
       2060.          0.4784E-02      0.6113E-02
       2070.          0.4801E-02      0.6138E-02
       2080.          0.4818E-02      0.6163E-02
       2090.          0.4835E-02      0.6188E-02
       2100.          0.4852E-02      0.6213E-02
       2110.          0.4869E-02      0.6238E-02
       2120.          0.4886E-02      0.6263E-02
       2130.          0.4903E-02      0.6288E-02
       2140.          0.4920E-02      0.6313E-02
       2150.          0.4937E-02      0.6338E-02
       2160.          0.4954E-02      0.6363E-02
       2170.          0.4971E-02      0.6387E-02
       2180.          0.4988E-02      0.6412E-02
       2190.          0.5005E-02      0.6437E-02
       2200.          0.5022E-02      0.6462E-02
       2210.          0.5039E-02      0.6487E-02
       2220.          0.5056E-02      0.6512E-02
       2230.          0.5073E-02      0.6537E-02
       2240.          0.5090E-02      0.6562E-02
       2250.          0.5107E-02      0.6587E-02
