#CMS-PAS-HIG-16-037, Nov. 2016
#160372_CMS_bbh_h_tautau_12.9fb-1
#
#Columns: Mh obs exp (pb, for sigma(pp->h)*BR(h->tau tau) by bb->h)

       90.00           12.94           18.74    
       100.0           7.923           13.70    
       110.0           6.041           9.660    
       120.0           3.738           6.635    
       130.0           3.264           4.802    
       140.0           2.806           3.817    
       150.0           2.275           2.877    
       160.0           1.745           1.937    
       170.0           1.481           1.565    
       180.0           1.218           1.192    
       190.0           1.106           1.002    
       200.0          0.9935          0.8106    
       210.0          0.8999          0.7278    
       220.0          0.8064          0.6450    
       230.0          0.7128          0.5622    
       240.0          0.6193          0.4794    
       250.0          0.5257          0.3966    
       260.0          0.4850          0.3710    
       270.0          0.4442          0.3453    
       280.0          0.4035          0.3196    
       290.0          0.3627          0.2939    
       300.0          0.3220          0.2682    
       310.0          0.2812          0.2425    
       320.0          0.2405          0.2168    
       330.0          0.1997          0.1911    
       340.0          0.1590          0.1654    
       350.0          0.1182          0.1397    
       360.0          0.1102          0.1313    
       370.0          0.1021          0.1228    
       380.0          0.9404E-01      0.1144    
       390.0          0.8597E-01      0.1059    
       400.0          0.7790E-01      0.9749E-01
       410.0          0.7342E-01      0.9217E-01
       420.0          0.6894E-01      0.8686E-01
       430.0          0.6446E-01      0.8154E-01
       440.0          0.5998E-01      0.7623E-01
       450.0          0.5549E-01      0.7092E-01
       460.0          0.5419E-01      0.6801E-01
       470.0          0.5288E-01      0.6510E-01
       480.0          0.5158E-01      0.6219E-01
       490.0          0.5027E-01      0.5928E-01
       500.0          0.4896E-01      0.5637E-01
       510.0          0.4785E-01      0.5522E-01
       520.0          0.4674E-01      0.5408E-01
       530.0          0.4563E-01      0.5293E-01
       540.0          0.4452E-01      0.5179E-01
       550.0          0.4341E-01      0.5064E-01
       560.0          0.4229E-01      0.4950E-01
       570.0          0.4118E-01      0.4835E-01
       580.0          0.4007E-01      0.4720E-01
       590.0          0.3896E-01      0.4606E-01
       600.0          0.3785E-01      0.4491E-01
       610.0          0.3674E-01      0.4377E-01
       620.0          0.3563E-01      0.4262E-01
       630.0          0.3451E-01      0.4148E-01
       640.0          0.3340E-01      0.4033E-01
       650.0          0.3229E-01      0.3919E-01
       660.0          0.3118E-01      0.3804E-01
       670.0          0.3007E-01      0.3689E-01
       680.0          0.2896E-01      0.3575E-01
       690.0          0.2785E-01      0.3460E-01
       700.0          0.2673E-01      0.3346E-01
       710.0          0.2624E-01      0.3268E-01
       720.0          0.2575E-01      0.3189E-01
       730.0          0.2526E-01      0.3111E-01
       740.0          0.2477E-01      0.3033E-01
       750.0          0.2427E-01      0.2955E-01
       760.0          0.2378E-01      0.2877E-01
       770.0          0.2329E-01      0.2799E-01
       780.0          0.2280E-01      0.2720E-01
       790.0          0.2230E-01      0.2642E-01
       800.0          0.2181E-01      0.2564E-01
       810.0          0.2140E-01      0.2522E-01
       820.0          0.2099E-01      0.2481E-01
       830.0          0.2058E-01      0.2439E-01
       840.0          0.2017E-01      0.2397E-01
       850.0          0.1976E-01      0.2356E-01
       860.0          0.1935E-01      0.2314E-01
       870.0          0.1894E-01      0.2272E-01
       880.0          0.1853E-01      0.2231E-01
       890.0          0.1811E-01      0.2189E-01
       900.0          0.1770E-01      0.2147E-01
       910.0          0.1747E-01      0.2107E-01
       920.0          0.1724E-01      0.2066E-01
       930.0          0.1701E-01      0.2026E-01
       940.0          0.1677E-01      0.1986E-01
       950.0          0.1654E-01      0.1945E-01
       960.0          0.1631E-01      0.1905E-01
       970.0          0.1608E-01      0.1864E-01
       980.0          0.1584E-01      0.1824E-01
       990.0          0.1561E-01      0.1783E-01
       1000.          0.1538E-01      0.1743E-01
       1010.          0.1522E-01      0.1726E-01
       1020.          0.1506E-01      0.1709E-01
       1030.          0.1490E-01      0.1691E-01
       1040.          0.1475E-01      0.1674E-01
       1050.          0.1459E-01      0.1657E-01
       1060.          0.1443E-01      0.1640E-01
       1070.          0.1427E-01      0.1623E-01
       1080.          0.1412E-01      0.1606E-01
       1090.          0.1396E-01      0.1589E-01
       1100.          0.1380E-01      0.1571E-01
       1110.          0.1364E-01      0.1554E-01
       1120.          0.1349E-01      0.1537E-01
       1130.          0.1333E-01      0.1520E-01
       1140.          0.1317E-01      0.1503E-01
       1150.          0.1301E-01      0.1486E-01
       1160.          0.1285E-01      0.1469E-01
       1170.          0.1270E-01      0.1451E-01
       1180.          0.1254E-01      0.1434E-01
       1190.          0.1238E-01      0.1417E-01
       1200.          0.1222E-01      0.1400E-01
       1210.          0.1212E-01      0.1389E-01
       1220.          0.1201E-01      0.1378E-01
       1230.          0.1190E-01      0.1368E-01
       1240.          0.1179E-01      0.1357E-01
       1250.          0.1169E-01      0.1346E-01
       1260.          0.1158E-01      0.1335E-01
       1270.          0.1147E-01      0.1325E-01
       1280.          0.1137E-01      0.1314E-01
       1290.          0.1126E-01      0.1303E-01
       1300.          0.1115E-01      0.1292E-01
       1310.          0.1104E-01      0.1282E-01
       1320.          0.1094E-01      0.1271E-01
       1330.          0.1083E-01      0.1260E-01
       1340.          0.1072E-01      0.1249E-01
       1350.          0.1061E-01      0.1239E-01
       1360.          0.1051E-01      0.1228E-01
       1370.          0.1040E-01      0.1217E-01
       1380.          0.1029E-01      0.1206E-01
       1390.          0.1019E-01      0.1195E-01
       1400.          0.1008E-01      0.1185E-01
       1410.          0.9981E-02      0.1175E-01
       1420.          0.9884E-02      0.1164E-01
       1430.          0.9787E-02      0.1154E-01
       1440.          0.9690E-02      0.1144E-01
       1450.          0.9593E-02      0.1134E-01
       1460.          0.9496E-02      0.1124E-01
       1470.          0.9399E-02      0.1114E-01
       1480.          0.9302E-02      0.1104E-01
       1490.          0.9205E-02      0.1093E-01
       1500.          0.9108E-02      0.1083E-01
       1510.          0.9011E-02      0.1073E-01
       1520.          0.8914E-02      0.1063E-01
       1530.          0.8817E-02      0.1053E-01
       1540.          0.8720E-02      0.1043E-01
       1550.          0.8623E-02      0.1033E-01
       1560.          0.8526E-02      0.1022E-01
       1570.          0.8429E-02      0.1012E-01
       1580.          0.8332E-02      0.1002E-01
       1590.          0.8235E-02      0.9920E-02
       1600.          0.8138E-02      0.9819E-02
       1610.          0.8109E-02      0.9779E-02
       1620.          0.8080E-02      0.9740E-02
       1630.          0.8052E-02      0.9701E-02
       1640.          0.8023E-02      0.9661E-02
       1650.          0.7994E-02      0.9622E-02
       1660.          0.7966E-02      0.9583E-02
       1670.          0.7937E-02      0.9544E-02
       1680.          0.7908E-02      0.9504E-02
       1690.          0.7880E-02      0.9465E-02
       1700.          0.7851E-02      0.9426E-02
       1710.          0.7822E-02      0.9386E-02
       1720.          0.7794E-02      0.9347E-02
       1730.          0.7765E-02      0.9308E-02
       1740.          0.7736E-02      0.9268E-02
       1750.          0.7708E-02      0.9229E-02
       1760.          0.7679E-02      0.9190E-02
       1770.          0.7650E-02      0.9150E-02
       1780.          0.7622E-02      0.9111E-02
       1790.          0.7593E-02      0.9072E-02
       1800.          0.7564E-02      0.9032E-02
       1810.          0.7538E-02      0.8990E-02
       1820.          0.7511E-02      0.8947E-02
       1830.          0.7484E-02      0.8905E-02
       1840.          0.7458E-02      0.8862E-02
       1850.          0.7431E-02      0.8819E-02
       1860.          0.7405E-02      0.8777E-02
       1870.          0.7378E-02      0.8734E-02
       1880.          0.7351E-02      0.8691E-02
       1890.          0.7325E-02      0.8649E-02
       1900.          0.7298E-02      0.8606E-02
       1910.          0.7271E-02      0.8564E-02
       1920.          0.7245E-02      0.8521E-02
       1930.          0.7218E-02      0.8478E-02
       1940.          0.7191E-02      0.8436E-02
       1950.          0.7165E-02      0.8393E-02
       1960.          0.7138E-02      0.8351E-02
       1970.          0.7111E-02      0.8308E-02
       1980.          0.7085E-02      0.8265E-02
       1990.          0.7058E-02      0.8223E-02
       2000.          0.7032E-02      0.8180E-02
       2010.          0.7017E-02      0.8160E-02
       2020.          0.7003E-02      0.8139E-02
       2030.          0.6989E-02      0.8118E-02
       2040.          0.6975E-02      0.8098E-02
       2050.          0.6960E-02      0.8077E-02
       2060.          0.6946E-02      0.8057E-02
       2070.          0.6932E-02      0.8036E-02
       2080.          0.6918E-02      0.8016E-02
       2090.          0.6904E-02      0.7995E-02
       2100.          0.6889E-02      0.7975E-02
       2110.          0.6875E-02      0.7954E-02
       2120.          0.6861E-02      0.7934E-02
       2130.          0.6847E-02      0.7913E-02
       2140.          0.6832E-02      0.7893E-02
       2150.          0.6818E-02      0.7872E-02
       2160.          0.6804E-02      0.7852E-02
       2170.          0.6790E-02      0.7831E-02
       2180.          0.6776E-02      0.7811E-02
       2190.          0.6761E-02      0.7790E-02
       2200.          0.6747E-02      0.7770E-02
       2210.          0.6733E-02      0.7749E-02
       2220.          0.6719E-02      0.7729E-02
       2230.          0.6704E-02      0.7708E-02
       2240.          0.6690E-02      0.7688E-02
       2250.          0.6676E-02      0.7667E-02
       2260.          0.6662E-02      0.7646E-02
       2270.          0.6648E-02      0.7626E-02
       2280.          0.6633E-02      0.7605E-02
       2290.          0.6619E-02      0.7585E-02
       2300.          0.6605E-02      0.7564E-02
       2310.          0.6592E-02      0.7549E-02
       2320.          0.6578E-02      0.7534E-02
       2330.          0.6565E-02      0.7518E-02
       2340.          0.6551E-02      0.7503E-02
       2350.          0.6538E-02      0.7488E-02
       2360.          0.6525E-02      0.7473E-02
       2370.          0.6511E-02      0.7457E-02
       2380.          0.6498E-02      0.7442E-02
       2390.          0.6485E-02      0.7427E-02
       2400.          0.6471E-02      0.7411E-02
       2410.          0.6458E-02      0.7396E-02
       2420.          0.6445E-02      0.7381E-02
       2430.          0.6431E-02      0.7365E-02
       2440.          0.6418E-02      0.7350E-02
       2450.          0.6404E-02      0.7335E-02
       2460.          0.6391E-02      0.7320E-02
       2470.          0.6378E-02      0.7304E-02
       2480.          0.6364E-02      0.7289E-02
       2490.          0.6351E-02      0.7274E-02
       2500.          0.6338E-02      0.7258E-02
       2510.          0.6324E-02      0.7243E-02
       2520.          0.6311E-02      0.7228E-02
       2530.          0.6298E-02      0.7212E-02
       2540.          0.6284E-02      0.7197E-02
       2550.          0.6271E-02      0.7182E-02
       2560.          0.6258E-02      0.7167E-02
       2570.          0.6244E-02      0.7151E-02
       2580.          0.6231E-02      0.7136E-02
       2590.          0.6217E-02      0.7121E-02
       2600.          0.6204E-02      0.7105E-02
       2610.          0.6203E-02      0.7097E-02
       2620.          0.6202E-02      0.7088E-02
       2630.          0.6201E-02      0.7080E-02
       2640.          0.6200E-02      0.7071E-02
       2650.          0.6199E-02      0.7063E-02
       2660.          0.6198E-02      0.7054E-02
       2670.          0.6197E-02      0.7046E-02
       2680.          0.6195E-02      0.7037E-02
       2690.          0.6194E-02      0.7029E-02
       2700.          0.6193E-02      0.7020E-02
       2710.          0.6192E-02      0.7012E-02
       2720.          0.6191E-02      0.7003E-02
       2730.          0.6190E-02      0.6995E-02
       2740.          0.6189E-02      0.6986E-02
       2750.          0.6188E-02      0.6978E-02
       2760.          0.6187E-02      0.6969E-02
       2770.          0.6186E-02      0.6961E-02
       2780.          0.6185E-02      0.6952E-02
       2790.          0.6184E-02      0.6944E-02
       2800.          0.6183E-02      0.6935E-02
       2810.          0.6181E-02      0.6927E-02
       2820.          0.6180E-02      0.6918E-02
       2830.          0.6179E-02      0.6910E-02
       2840.          0.6178E-02      0.6901E-02
       2850.          0.6177E-02      0.6893E-02
       2860.          0.6176E-02      0.6885E-02
       2870.          0.6175E-02      0.6876E-02
       2880.          0.6174E-02      0.6868E-02
       2890.          0.6173E-02      0.6859E-02
       2900.          0.6172E-02      0.6851E-02
       2910.          0.6163E-02      0.6839E-02
       2920.          0.6155E-02      0.6827E-02
       2930.          0.6147E-02      0.6816E-02
       2940.          0.6138E-02      0.6804E-02
       2950.          0.6130E-02      0.6793E-02
       2960.          0.6121E-02      0.6781E-02
       2970.          0.6113E-02      0.6769E-02
       2980.          0.6105E-02      0.6758E-02
       2990.          0.6096E-02      0.6746E-02
       3000.          0.6088E-02      0.6734E-02