#CMS-PAS-HIG-16-031, Nov. 2016
#16031_CMS_Hptb_taunu_12.9fb-1
#
#Columns: MHp obs exp (in pb for sigma_13(Hptb)*BR(Hp->tau nu))

       180.0           1.821           1.399    
       190.0           1.579           1.107    
       200.0           1.337          0.9033    
       210.0           1.166          0.8251    
       220.0          0.9962          0.7538    
       230.0          0.8903          0.6557    
       240.0          0.7843          0.5576    
       250.0          0.6783          0.4992    
       260.0          0.5984          0.4409    
       270.0          0.5185          0.3825    
       280.0          0.4386          0.3427    
       290.0          0.3586          0.3028    
       300.0          0.2787          0.2861    
       310.0          0.2590          0.2694    
       320.0          0.2392          0.2527    
       330.0          0.2195          0.2454    
       340.0          0.1998          0.2381    
       350.0          0.1800          0.2309    
       360.0          0.1702          0.2181    
       370.0          0.1605          0.2053    
       380.0          0.1507          0.1925    
       390.0          0.1409          0.1797    
       400.0          0.1312          0.1669    
       410.0          0.1275          0.1566    
       420.0          0.1238          0.1463    
       430.0          0.1201          0.1360    
       440.0          0.1164          0.1257    
       450.0          0.1127          0.1154    
       460.0          0.1090          0.1082    
       470.0          0.1053          0.1010    
       480.0          0.1016          0.9384E-01
       490.0          0.9785E-01      0.8666E-01
       500.0          0.9415E-01      0.8368E-01
       510.0          0.9161E-01      0.8070E-01
       520.0          0.8907E-01      0.7772E-01
       530.0          0.8653E-01      0.7475E-01
       540.0          0.8398E-01      0.7177E-01
       550.0          0.8144E-01      0.6879E-01
       560.0          0.7890E-01      0.6581E-01
       570.0          0.7636E-01      0.6283E-01
       580.0          0.7382E-01      0.5986E-01
       590.0          0.7128E-01      0.5688E-01
       600.0          0.6874E-01      0.5390E-01
       610.0          0.6620E-01      0.5248E-01
       620.0          0.6366E-01      0.5107E-01
       630.0          0.6112E-01      0.4965E-01
       640.0          0.5858E-01      0.4823E-01
       650.0          0.5603E-01      0.4682E-01
       660.0          0.5349E-01      0.4540E-01
       670.0          0.5095E-01      0.4398E-01
       680.0          0.4841E-01      0.4257E-01
       690.0          0.4587E-01      0.4115E-01
       700.0          0.4333E-01      0.3973E-01
       710.0          0.4079E-01      0.3832E-01
       720.0          0.3825E-01      0.3690E-01
       730.0          0.3571E-01      0.3549E-01
       740.0          0.3317E-01      0.3407E-01
       750.0          0.3063E-01      0.3265E-01
       760.0          0.2987E-01      0.3124E-01
       770.0          0.2912E-01      0.2982E-01
       780.0          0.2837E-01      0.2840E-01
       790.0          0.2762E-01      0.2780E-01
       800.0          0.2687E-01      0.2720E-01
       810.0          0.2612E-01      0.2660E-01
       820.0          0.2537E-01      0.2600E-01
       830.0          0.2462E-01      0.2540E-01
       840.0          0.2387E-01      0.2480E-01
       850.0          0.2311E-01      0.2420E-01
       860.0          0.2236E-01      0.2360E-01
       870.0          0.2161E-01      0.2300E-01
       880.0          0.2086E-01      0.2240E-01
       890.0          0.2011E-01      0.2180E-01
       900.0          0.1936E-01      0.2120E-01
       910.0          0.1861E-01      0.2060E-01
       920.0          0.1786E-01      0.2000E-01
       930.0          0.1711E-01      0.1940E-01
       940.0          0.1635E-01      0.1880E-01
       950.0          0.1560E-01      0.1820E-01
       960.0          0.1485E-01      0.1760E-01
       970.0          0.1410E-01      0.1700E-01
       980.0          0.1335E-01      0.1639E-01
       990.0          0.1260E-01      0.1579E-01
       1000.          0.1185E-01      0.1519E-01
       1010.          0.1180E-01      0.1510E-01
       1020.          0.1174E-01      0.1501E-01
       1030.          0.1169E-01      0.1492E-01
       1040.          0.1164E-01      0.1482E-01
       1050.          0.1159E-01      0.1473E-01
       1060.          0.1154E-01      0.1464E-01
       1070.          0.1148E-01      0.1454E-01
       1080.          0.1143E-01      0.1445E-01
       1090.          0.1138E-01      0.1436E-01
       1100.          0.1133E-01      0.1427E-01
       1110.          0.1127E-01      0.1417E-01
       1120.          0.1122E-01      0.1408E-01
       1130.          0.1117E-01      0.1399E-01
       1140.          0.1112E-01      0.1390E-01
       1150.          0.1107E-01      0.1380E-01
       1160.          0.1101E-01      0.1371E-01
       1170.          0.1096E-01      0.1362E-01
       1180.          0.1091E-01      0.1353E-01
       1190.          0.1086E-01      0.1343E-01
       1200.          0.1080E-01      0.1334E-01
       1210.          0.1075E-01      0.1325E-01
       1220.          0.1070E-01      0.1315E-01
       1230.          0.1065E-01      0.1306E-01
       1240.          0.1060E-01      0.1297E-01
       1250.          0.1054E-01      0.1288E-01
       1260.          0.1049E-01      0.1278E-01
       1270.          0.1044E-01      0.1269E-01
       1280.          0.1039E-01      0.1260E-01
       1290.          0.1034E-01      0.1251E-01
       1300.          0.1028E-01      0.1241E-01
       1310.          0.1023E-01      0.1232E-01
       1320.          0.1018E-01      0.1223E-01
       1330.          0.1013E-01      0.1213E-01
       1340.          0.1007E-01      0.1204E-01
       1350.          0.1002E-01      0.1195E-01
       1360.          0.9970E-02      0.1186E-01
       1370.          0.9918E-02      0.1176E-01
       1380.          0.9866E-02      0.1167E-01
       1390.          0.9814E-02      0.1158E-01
       1400.          0.9761E-02      0.1149E-01
       1410.          0.9709E-02      0.1139E-01
       1420.          0.9657E-02      0.1130E-01
       1430.          0.9605E-02      0.1121E-01
       1440.          0.9553E-02      0.1111E-01
       1450.          0.9501E-02      0.1102E-01
       1460.          0.9448E-02      0.1093E-01
       1470.          0.9396E-02      0.1084E-01
       1480.          0.9344E-02      0.1074E-01
       1490.          0.9292E-02      0.1065E-01
       1500.          0.9240E-02      0.1056E-01
       1510.          0.9188E-02      0.1047E-01
       1520.          0.9135E-02      0.1037E-01
       1530.          0.9083E-02      0.1028E-01
       1540.          0.9031E-02      0.1019E-01
       1550.          0.8979E-02      0.1009E-01
       1560.          0.8927E-02      0.1000E-01
       1570.          0.8875E-02      0.9909E-02
       1580.          0.8822E-02      0.9816E-02
       1590.          0.8770E-02      0.9724E-02
       1600.          0.8718E-02      0.9631E-02
       1610.          0.8666E-02      0.9538E-02
       1620.          0.8614E-02      0.9446E-02
       1630.          0.8562E-02      0.9353E-02
       1640.          0.8509E-02      0.9260E-02
       1650.          0.8457E-02      0.9167E-02
       1660.          0.8405E-02      0.9075E-02
       1670.          0.8353E-02      0.8982E-02
       1680.          0.8301E-02      0.8889E-02
       1690.          0.8249E-02      0.8797E-02
       1700.          0.8196E-02      0.8704E-02
       1710.          0.8144E-02      0.8611E-02
       1720.          0.8092E-02      0.8518E-02
       1730.          0.8040E-02      0.8426E-02
       1740.          0.7988E-02      0.8333E-02
       1750.          0.7936E-02      0.8240E-02
       1760.          0.7883E-02      0.8148E-02
       1770.          0.7831E-02      0.8055E-02
       1780.          0.7779E-02      0.7962E-02
       1790.          0.7727E-02      0.7869E-02
       1800.          0.7675E-02      0.7777E-02
       1810.          0.7623E-02      0.7684E-02
       1820.          0.7570E-02      0.7591E-02
       1830.          0.7518E-02      0.7499E-02
       1840.          0.7466E-02      0.7406E-02
       1850.          0.7414E-02      0.7313E-02
       1860.          0.7362E-02      0.7220E-02
       1870.          0.7310E-02      0.7128E-02
       1880.          0.7257E-02      0.7035E-02
       1890.          0.7205E-02      0.6942E-02
       1900.          0.7153E-02      0.6850E-02
       1910.          0.7101E-02      0.6757E-02
       1920.          0.7049E-02      0.6664E-02
       1930.          0.6997E-02      0.6571E-02
       1940.          0.6944E-02      0.6479E-02
       1950.          0.6892E-02      0.6386E-02
       1960.          0.6840E-02      0.6293E-02
       1970.          0.6788E-02      0.6201E-02
       1980.          0.6736E-02      0.6108E-02
       1990.          0.6684E-02      0.6015E-02
       2000.          0.6631E-02      0.5922E-02
       2010.          0.6608E-02      0.5902E-02
       2020.          0.6584E-02      0.5882E-02
       2030.          0.6560E-02      0.5861E-02
       2040.          0.6536E-02      0.5841E-02
       2050.          0.6512E-02      0.5821E-02
       2060.          0.6489E-02      0.5800E-02
       2070.          0.6465E-02      0.5780E-02
       2080.          0.6441E-02      0.5759E-02
       2090.          0.6417E-02      0.5739E-02
       2100.          0.6393E-02      0.5719E-02
       2110.          0.6370E-02      0.5698E-02
       2120.          0.6346E-02      0.5678E-02
       2130.          0.6322E-02      0.5657E-02
       2140.          0.6298E-02      0.5637E-02
       2150.          0.6274E-02      0.5617E-02
       2160.          0.6250E-02      0.5596E-02
       2170.          0.6227E-02      0.5576E-02
       2180.          0.6203E-02      0.5555E-02
       2190.          0.6179E-02      0.5535E-02
       2200.          0.6155E-02      0.5515E-02
       2210.          0.6131E-02      0.5494E-02
       2220.          0.6108E-02      0.5474E-02
       2230.          0.6084E-02      0.5453E-02
       2240.          0.6060E-02      0.5433E-02
       2250.          0.6036E-02      0.5413E-02
       2260.          0.6012E-02      0.5392E-02
       2270.          0.5989E-02      0.5372E-02
       2280.          0.5965E-02      0.5352E-02
       2290.          0.5941E-02      0.5331E-02
       2300.          0.5917E-02      0.5311E-02
       2310.          0.5893E-02      0.5290E-02
       2320.          0.5870E-02      0.5270E-02
       2330.          0.5846E-02      0.5250E-02
       2340.          0.5822E-02      0.5229E-02
       2350.          0.5798E-02      0.5209E-02
       2360.          0.5774E-02      0.5188E-02
       2370.          0.5751E-02      0.5168E-02
       2380.          0.5727E-02      0.5148E-02
       2390.          0.5703E-02      0.5127E-02
       2400.          0.5679E-02      0.5107E-02
       2410.          0.5655E-02      0.5086E-02
       2420.          0.5632E-02      0.5066E-02
       2430.          0.5608E-02      0.5046E-02
       2440.          0.5584E-02      0.5025E-02
       2450.          0.5560E-02      0.5005E-02
       2460.          0.5536E-02      0.4984E-02
       2470.          0.5513E-02      0.4964E-02
       2480.          0.5489E-02      0.4944E-02
       2490.          0.5465E-02      0.4923E-02
       2500.          0.5441E-02      0.4903E-02
       2510.          0.5417E-02      0.4882E-02
       2520.          0.5394E-02      0.4862E-02
       2530.          0.5370E-02      0.4842E-02
       2540.          0.5346E-02      0.4821E-02
       2550.          0.5322E-02      0.4801E-02
       2560.          0.5298E-02      0.4781E-02
       2570.          0.5274E-02      0.4760E-02
       2580.          0.5251E-02      0.4740E-02
       2590.          0.5227E-02      0.4719E-02
       2600.          0.5203E-02      0.4699E-02
       2610.          0.5179E-02      0.4679E-02
       2620.          0.5155E-02      0.4658E-02
       2630.          0.5132E-02      0.4638E-02
       2640.          0.5108E-02      0.4617E-02
       2650.          0.5084E-02      0.4597E-02
       2660.          0.5060E-02      0.4577E-02
       2670.          0.5036E-02      0.4556E-02
       2680.          0.5013E-02      0.4536E-02
       2690.          0.4989E-02      0.4515E-02
       2700.          0.4965E-02      0.4495E-02
       2710.          0.4941E-02      0.4475E-02
       2720.          0.4917E-02      0.4454E-02
       2730.          0.4894E-02      0.4434E-02
       2740.          0.4870E-02      0.4413E-02
       2750.          0.4846E-02      0.4393E-02
       2760.          0.4822E-02      0.4373E-02
       2770.          0.4798E-02      0.4352E-02
       2780.          0.4775E-02      0.4332E-02
       2790.          0.4751E-02      0.4312E-02
       2800.          0.4727E-02      0.4291E-02
       2810.          0.4703E-02      0.4271E-02
       2820.          0.4679E-02      0.4250E-02
       2830.          0.4656E-02      0.4230E-02
       2840.          0.4632E-02      0.4210E-02
       2850.          0.4608E-02      0.4189E-02
       2860.          0.4584E-02      0.4169E-02
       2870.          0.4560E-02      0.4148E-02
       2880.          0.4537E-02      0.4128E-02
       2890.          0.4513E-02      0.4108E-02
       2900.          0.4489E-02      0.4087E-02
       2910.          0.4465E-02      0.4067E-02
       2920.          0.4441E-02      0.4046E-02
       2930.          0.4418E-02      0.4026E-02
       2940.          0.4394E-02      0.4006E-02
       2950.          0.4370E-02      0.3985E-02
       2960.          0.4346E-02      0.3965E-02
       2970.          0.4322E-02      0.3944E-02
       2980.          0.4298E-02      0.3924E-02
       2990.          0.4275E-02      0.3904E-02
       3000.          0.4251E-02      0.3883E-02
