#CMS PAS HIG-16-031 Oct. 2016
#160311_CMS_t_Hplusb_taunu_12.9fb-1
# Fig. 6a
#columns: Mh, obs, exp (Br(t->Hplus b) x Br(Hplus->tau nu))

       80.00          0.2765E-01      0.2060E-01
       85.00          0.2342E-01      0.1795E-01
       90.00          0.1919E-01      0.1530E-01
       95.00          0.1632E-01      0.1448E-01
       100.0          0.1344E-01      0.1367E-01
       105.0          0.1166E-01      0.1178E-01
       110.0          0.9887E-02      0.9887E-02
       115.0          0.8111E-02      0.7998E-02
       120.0          0.6335E-02      0.6109E-02
       125.0          0.5700E-02      0.5390E-02
       130.0          0.5066E-02      0.4671E-02
       135.0          0.4431E-02      0.3952E-02
       140.0          0.3797E-02      0.3233E-02
       145.0          0.3769E-02      0.3008E-02
       150.0          0.3741E-02      0.2782E-02
       155.0          0.2951E-02      0.2951E-02
       160.0          0.2726E-02      0.2444E-02
