# CMS, CMS-PAS-HIG-18-014, Sept 2018, Fig 6a
# 18014_CMS_pp-tbHpm-taunu_13TeV_35.9fb-1.txt
# Limit is set on sigma(pp->tbH^\pm) x BR(H^\pm -> tau nu) in pb.
# MHp	obs		exp

       80.00           5.986           5.837    
       85.00           5.280           5.765    
       90.00           4.574           5.692    
       95.00           3.920           5.313    
       100.0           3.267           4.933    
       105.0           3.090           4.642    
       110.0           2.913           4.351    
       115.0           2.737           4.060    
       120.0           2.560           3.769    
       125.0           2.479           3.483    
       130.0           2.399           3.197    
       135.0           2.318           2.911    
       140.0           2.238           2.625    
       145.0           1.931           2.413    
       150.0           1.625           2.200    
       155.0           1.482           1.956    
       160.0           1.306           1.907    
       165.0           1.006           1.409    
       170.0          0.5728          0.8087    
       175.0          0.5178          0.7249    
       180.0          0.8505          0.8155    
       185.0          0.8007          0.7552    
       190.0          0.7510          0.6949    
       195.0          0.7012          0.6346    
       200.0          0.6514          0.5743    
       205.0          0.6069          0.5342    
       210.0          0.5624          0.4940    
       215.0          0.5179          0.4539    
       220.0          0.4734          0.4138    
       225.0          0.4463          0.3925    
       230.0          0.4192          0.3712    
       235.0          0.3922          0.3498    
       240.0          0.3651          0.3285    
       245.0          0.3380          0.3072    
       250.0          0.3110          0.2859    
       255.0          0.2937          0.2727    
       260.0          0.2765          0.2594    
       265.0          0.2593          0.2462    
       270.0          0.2421          0.2329    
       275.0          0.2249          0.2197    
       280.0          0.2077          0.2065    
       285.0          0.1904          0.1932    
       290.0          0.1732          0.1800    
       295.0          0.1560          0.1667    
       300.0          0.1388          0.1535    
       305.0          0.1358          0.1489    
       310.0          0.1328          0.1443    
       315.0          0.1298          0.1397    
       320.0          0.1268          0.1351    
       325.0          0.1238          0.1305    
       330.0          0.1209          0.1259    
       335.0          0.1179          0.1213    
       340.0          0.1149          0.1167    
       345.0          0.1119          0.1121    
       350.0          0.1089          0.1075    
       355.0          0.1059          0.1029    
       360.0          0.1029          0.9826E-01
       365.0          0.9995E-01      0.9365E-01
       370.0          0.9696E-01      0.8905E-01
       375.0          0.9397E-01      0.8444E-01
       380.0          0.9098E-01      0.7984E-01
       385.0          0.8800E-01      0.7523E-01
       390.0          0.8501E-01      0.7063E-01
       395.0          0.8202E-01      0.6603E-01
       400.0          0.7903E-01      0.6142E-01
       405.0          0.7749E-01      0.5993E-01
       410.0          0.7594E-01      0.5844E-01
       415.0          0.7440E-01      0.5695E-01
       420.0          0.7285E-01      0.5546E-01
       425.0          0.7131E-01      0.5397E-01
       430.0          0.6976E-01      0.5248E-01
       435.0          0.6822E-01      0.5099E-01
       440.0          0.6667E-01      0.4950E-01
       445.0          0.6513E-01      0.4801E-01
       450.0          0.6359E-01      0.4652E-01
       455.0          0.6204E-01      0.4503E-01
       460.0          0.6050E-01      0.4354E-01
       465.0          0.5895E-01      0.4205E-01
       470.0          0.5741E-01      0.4056E-01
       475.0          0.5586E-01      0.3907E-01
       480.0          0.5432E-01      0.3758E-01
       485.0          0.5277E-01      0.3609E-01
       490.0          0.5123E-01      0.3460E-01
       495.0          0.4968E-01      0.3311E-01
       500.0          0.4814E-01      0.3162E-01
       505.0          0.4746E-01      0.3114E-01
       510.0          0.4678E-01      0.3066E-01
       515.0          0.4610E-01      0.3018E-01
       520.0          0.4542E-01      0.2970E-01
       525.0          0.4475E-01      0.2922E-01
       530.0          0.4407E-01      0.2875E-01
       535.0          0.4339E-01      0.2827E-01
       540.0          0.4271E-01      0.2779E-01
       545.0          0.4203E-01      0.2731E-01
       550.0          0.4136E-01      0.2683E-01
       555.0          0.4068E-01      0.2635E-01
       560.0          0.4000E-01      0.2587E-01
       565.0          0.3932E-01      0.2539E-01
       570.0          0.3864E-01      0.2491E-01
       575.0          0.3797E-01      0.2443E-01
       580.0          0.3729E-01      0.2395E-01
       585.0          0.3661E-01      0.2347E-01
       590.0          0.3593E-01      0.2299E-01
       595.0          0.3525E-01      0.2251E-01
       600.0          0.3458E-01      0.2203E-01
       605.0          0.3390E-01      0.2155E-01
       610.0          0.3322E-01      0.2107E-01
       615.0          0.3254E-01      0.2059E-01
       620.0          0.3186E-01      0.2011E-01
       625.0          0.3118E-01      0.1963E-01
       630.0          0.3051E-01      0.1915E-01
       635.0          0.2983E-01      0.1867E-01
       640.0          0.2915E-01      0.1819E-01
       645.0          0.2847E-01      0.1771E-01
       650.0          0.2779E-01      0.1723E-01
       655.0          0.2712E-01      0.1675E-01
       660.0          0.2644E-01      0.1628E-01
       665.0          0.2576E-01      0.1580E-01
       670.0          0.2508E-01      0.1532E-01
       675.0          0.2440E-01      0.1484E-01
       680.0          0.2373E-01      0.1436E-01
       685.0          0.2305E-01      0.1388E-01
       690.0          0.2237E-01      0.1340E-01
       695.0          0.2169E-01      0.1292E-01
       700.0          0.2101E-01      0.1244E-01
       705.0          0.2034E-01      0.1196E-01
       710.0          0.1966E-01      0.1148E-01
       715.0          0.1898E-01      0.1100E-01
       720.0          0.1830E-01      0.1052E-01
       725.0          0.1762E-01      0.1004E-01
       730.0          0.1694E-01      0.9561E-02
       735.0          0.1627E-01      0.9081E-02
       740.0          0.1559E-01      0.8601E-02
       745.0          0.1491E-01      0.8122E-02
       750.0          0.1423E-01      0.7642E-02
       755.0          0.1388E-01      0.7529E-02
       760.0          0.1353E-01      0.7417E-02
       765.0          0.1317E-01      0.7304E-02
       770.0          0.1282E-01      0.7191E-02
       775.0          0.1246E-01      0.7078E-02
       780.0          0.1211E-01      0.6965E-02
       785.0          0.1176E-01      0.6853E-02
       790.0          0.1140E-01      0.6740E-02
       795.0          0.1105E-01      0.6627E-02
       800.0          0.1070E-01      0.6514E-02
       805.0          0.1064E-01      0.6471E-02
       810.0          0.1058E-01      0.6427E-02
       815.0          0.1053E-01      0.6383E-02
       820.0          0.1047E-01      0.6340E-02
       825.0          0.1042E-01      0.6296E-02
       830.0          0.1036E-01      0.6253E-02
       835.0          0.1030E-01      0.6209E-02
       840.0          0.1025E-01      0.6165E-02
       845.0          0.1019E-01      0.6122E-02
       850.0          0.1013E-01      0.6078E-02
       855.0          0.1008E-01      0.6035E-02
       860.0          0.1002E-01      0.5991E-02
       865.0          0.9967E-02      0.5947E-02
       870.0          0.9911E-02      0.5904E-02
       875.0          0.9854E-02      0.5860E-02
       880.0          0.9798E-02      0.5817E-02
       885.0          0.9742E-02      0.5773E-02
       890.0          0.9686E-02      0.5729E-02
       895.0          0.9630E-02      0.5686E-02
       900.0          0.9574E-02      0.5642E-02
       905.0          0.9518E-02      0.5599E-02
       910.0          0.9462E-02      0.5555E-02
       915.0          0.9406E-02      0.5511E-02
       920.0          0.9350E-02      0.5468E-02
       925.0          0.9294E-02      0.5424E-02
       930.0          0.9238E-02      0.5381E-02
       935.0          0.9182E-02      0.5337E-02
       940.0          0.9126E-02      0.5293E-02
       945.0          0.9070E-02      0.5250E-02
       950.0          0.9014E-02      0.5206E-02
       955.0          0.8957E-02      0.5163E-02
       960.0          0.8901E-02      0.5119E-02
       965.0          0.8845E-02      0.5075E-02
       970.0          0.8789E-02      0.5032E-02
       975.0          0.8733E-02      0.4988E-02
       980.0          0.8677E-02      0.4945E-02
       985.0          0.8621E-02      0.4901E-02
       990.0          0.8565E-02      0.4857E-02
       995.0          0.8509E-02      0.4814E-02
       1000.          0.8453E-02      0.4802E-02
       1005.          0.8435E-02      0.4790E-02
       1010.          0.8418E-02      0.4779E-02
       1015.          0.8400E-02      0.4767E-02
       1020.          0.8383E-02      0.4756E-02
       1025.          0.8365E-02      0.4744E-02
       1030.          0.8348E-02      0.4732E-02
       1035.          0.8330E-02      0.4721E-02
       1040.          0.8313E-02      0.4709E-02
       1045.          0.8295E-02      0.4698E-02
       1050.          0.8277E-02      0.4686E-02
       1055.          0.8260E-02      0.4674E-02
       1060.          0.8242E-02      0.4663E-02
       1065.          0.8225E-02      0.4651E-02
       1070.          0.8207E-02      0.4639E-02
       1075.          0.8190E-02      0.4628E-02
       1080.          0.8172E-02      0.4616E-02
       1085.          0.8155E-02      0.4605E-02
       1090.          0.8137E-02      0.4593E-02
       1095.          0.8120E-02      0.4581E-02
       1100.          0.8102E-02      0.4570E-02
       1105.          0.8084E-02      0.4558E-02
       1110.          0.8067E-02      0.4546E-02
       1115.          0.8049E-02      0.4535E-02
       1120.          0.8032E-02      0.4523E-02
       1125.          0.8014E-02      0.4512E-02
       1130.          0.7997E-02      0.4500E-02
       1135.          0.7979E-02      0.4488E-02
       1140.          0.7962E-02      0.4477E-02
       1145.          0.7944E-02      0.4465E-02
       1150.          0.7926E-02      0.4454E-02
       1155.          0.7909E-02      0.4442E-02
       1160.          0.7891E-02      0.4430E-02
       1165.          0.7874E-02      0.4419E-02
       1170.          0.7856E-02      0.4407E-02
       1175.          0.7839E-02      0.4395E-02
       1180.          0.7821E-02      0.4384E-02
       1185.          0.7804E-02      0.4372E-02
       1190.          0.7786E-02      0.4361E-02
       1195.          0.7769E-02      0.4349E-02
       1200.          0.7751E-02      0.4337E-02
       1205.          0.7733E-02      0.4326E-02
       1210.          0.7716E-02      0.4314E-02
       1215.          0.7698E-02      0.4302E-02
       1220.          0.7681E-02      0.4291E-02
       1225.          0.7663E-02      0.4279E-02
       1230.          0.7646E-02      0.4268E-02
       1235.          0.7628E-02      0.4256E-02
       1240.          0.7611E-02      0.4244E-02
       1245.          0.7593E-02      0.4233E-02
       1250.          0.7575E-02      0.4221E-02
       1255.          0.7558E-02      0.4210E-02
       1260.          0.7540E-02      0.4198E-02
       1265.          0.7523E-02      0.4186E-02
       1270.          0.7505E-02      0.4175E-02
       1275.          0.7488E-02      0.4163E-02
       1280.          0.7470E-02      0.4151E-02
       1285.          0.7453E-02      0.4140E-02
       1290.          0.7435E-02      0.4128E-02
       1295.          0.7418E-02      0.4117E-02
       1300.          0.7400E-02      0.4105E-02
       1305.          0.7382E-02      0.4093E-02
       1310.          0.7365E-02      0.4082E-02
       1315.          0.7347E-02      0.4070E-02
       1320.          0.7330E-02      0.4059E-02
       1325.          0.7312E-02      0.4047E-02
       1330.          0.7295E-02      0.4035E-02
       1335.          0.7277E-02      0.4024E-02
       1340.          0.7260E-02      0.4012E-02
       1345.          0.7242E-02      0.4000E-02
       1350.          0.7225E-02      0.3989E-02
       1355.          0.7207E-02      0.3977E-02
       1360.          0.7189E-02      0.3966E-02
       1365.          0.7172E-02      0.3954E-02
       1370.          0.7154E-02      0.3942E-02
       1375.          0.7137E-02      0.3931E-02
       1380.          0.7119E-02      0.3919E-02
       1385.          0.7102E-02      0.3907E-02
       1390.          0.7084E-02      0.3896E-02
       1395.          0.7067E-02      0.3884E-02
       1400.          0.7049E-02      0.3873E-02
       1405.          0.7031E-02      0.3861E-02
       1410.          0.7014E-02      0.3849E-02
       1415.          0.6996E-02      0.3838E-02
       1420.          0.6979E-02      0.3826E-02
       1425.          0.6961E-02      0.3815E-02
       1430.          0.6944E-02      0.3803E-02
       1435.          0.6926E-02      0.3791E-02
       1440.          0.6909E-02      0.3780E-02
       1445.          0.6891E-02      0.3768E-02
       1450.          0.6874E-02      0.3756E-02
       1455.          0.6856E-02      0.3745E-02
       1460.          0.6838E-02      0.3733E-02
       1465.          0.6821E-02      0.3722E-02
       1470.          0.6803E-02      0.3710E-02
       1475.          0.6786E-02      0.3698E-02
       1480.          0.6768E-02      0.3687E-02
       1485.          0.6751E-02      0.3675E-02
       1490.          0.6733E-02      0.3663E-02
       1495.          0.6716E-02      0.3652E-02
       1500.          0.6698E-02      0.3640E-02
       1505.          0.6681E-02      0.3629E-02
       1510.          0.6663E-02      0.3617E-02
       1515.          0.6645E-02      0.3605E-02
       1520.          0.6628E-02      0.3594E-02
       1525.          0.6610E-02      0.3582E-02
       1530.          0.6593E-02      0.3571E-02
       1535.          0.6575E-02      0.3559E-02
       1540.          0.6558E-02      0.3547E-02
       1545.          0.6540E-02      0.3536E-02
       1550.          0.6523E-02      0.3524E-02
       1555.          0.6505E-02      0.3512E-02
       1560.          0.6487E-02      0.3501E-02
       1565.          0.6470E-02      0.3489E-02
       1570.          0.6452E-02      0.3478E-02
       1575.          0.6435E-02      0.3466E-02
       1580.          0.6417E-02      0.3454E-02
       1585.          0.6400E-02      0.3443E-02
       1590.          0.6382E-02      0.3431E-02
       1595.          0.6365E-02      0.3419E-02
       1600.          0.6347E-02      0.3408E-02
       1605.          0.6330E-02      0.3396E-02
       1610.          0.6312E-02      0.3385E-02
       1615.          0.6294E-02      0.3373E-02
       1620.          0.6277E-02      0.3361E-02
       1625.          0.6259E-02      0.3350E-02
       1630.          0.6242E-02      0.3338E-02
       1635.          0.6224E-02      0.3327E-02
       1640.          0.6207E-02      0.3315E-02
       1645.          0.6189E-02      0.3303E-02
       1650.          0.6172E-02      0.3292E-02
       1655.          0.6154E-02      0.3280E-02
       1660.          0.6137E-02      0.3268E-02
       1665.          0.6119E-02      0.3257E-02
       1670.          0.6101E-02      0.3245E-02
       1675.          0.6084E-02      0.3234E-02
       1680.          0.6066E-02      0.3222E-02
       1685.          0.6049E-02      0.3210E-02
       1690.          0.6031E-02      0.3199E-02
       1695.          0.6014E-02      0.3187E-02
       1700.          0.5996E-02      0.3175E-02
       1705.          0.5979E-02      0.3164E-02
       1710.          0.5961E-02      0.3152E-02
       1715.          0.5943E-02      0.3141E-02
       1720.          0.5926E-02      0.3129E-02
       1725.          0.5908E-02      0.3117E-02
       1730.          0.5891E-02      0.3106E-02
       1735.          0.5873E-02      0.3094E-02
       1740.          0.5856E-02      0.3083E-02
       1745.          0.5838E-02      0.3071E-02
       1750.          0.5821E-02      0.3059E-02
       1755.          0.5803E-02      0.3048E-02
       1760.          0.5786E-02      0.3036E-02
       1765.          0.5768E-02      0.3024E-02
       1770.          0.5750E-02      0.3013E-02
       1775.          0.5733E-02      0.3001E-02
       1780.          0.5715E-02      0.2990E-02
       1785.          0.5698E-02      0.2978E-02
       1790.          0.5680E-02      0.2966E-02
       1795.          0.5663E-02      0.2955E-02
       1800.          0.5645E-02      0.2943E-02
       1805.          0.5628E-02      0.2931E-02
       1810.          0.5610E-02      0.2920E-02
       1815.          0.5592E-02      0.2908E-02
       1820.          0.5575E-02      0.2897E-02
       1825.          0.5557E-02      0.2885E-02
       1830.          0.5540E-02      0.2873E-02
       1835.          0.5522E-02      0.2862E-02
       1840.          0.5505E-02      0.2850E-02
       1845.          0.5487E-02      0.2839E-02
       1850.          0.5470E-02      0.2827E-02
       1855.          0.5452E-02      0.2815E-02
       1860.          0.5435E-02      0.2804E-02
       1865.          0.5417E-02      0.2792E-02
       1870.          0.5399E-02      0.2780E-02
       1875.          0.5382E-02      0.2769E-02
       1880.          0.5364E-02      0.2757E-02
       1885.          0.5347E-02      0.2746E-02
       1890.          0.5329E-02      0.2734E-02
       1895.          0.5312E-02      0.2722E-02
       1900.          0.5294E-02      0.2711E-02
       1905.          0.5277E-02      0.2699E-02
       1910.          0.5259E-02      0.2687E-02
       1915.          0.5242E-02      0.2676E-02
       1920.          0.5224E-02      0.2664E-02
       1925.          0.5206E-02      0.2653E-02
       1930.          0.5189E-02      0.2641E-02
       1935.          0.5171E-02      0.2629E-02
       1940.          0.5154E-02      0.2618E-02
       1945.          0.5136E-02      0.2606E-02
       1950.          0.5119E-02      0.2595E-02
       1955.          0.5101E-02      0.2583E-02
       1960.          0.5084E-02      0.2571E-02
       1965.          0.5066E-02      0.2560E-02
       1970.          0.5048E-02      0.2548E-02
       1975.          0.5031E-02      0.2536E-02
       1980.          0.5013E-02      0.2525E-02
       1985.          0.4996E-02      0.2513E-02
       1990.          0.4978E-02      0.2502E-02
       1995.          0.4977E-02      0.2490E-02
       2000.          0.4976E-02      0.2478E-02
       2005.          0.4975E-02      0.2477E-02
       2010.          0.4974E-02      0.2476E-02
       2015.          0.4973E-02      0.2475E-02
       2020.          0.4972E-02      0.2474E-02
       2025.          0.4971E-02      0.2472E-02
       2030.          0.4970E-02      0.2471E-02
       2035.          0.4969E-02      0.2470E-02
       2040.          0.4968E-02      0.2469E-02
       2045.          0.4967E-02      0.2468E-02
       2050.          0.4966E-02      0.2466E-02
       2055.          0.4965E-02      0.2465E-02
       2060.          0.4964E-02      0.2464E-02
       2065.          0.4963E-02      0.2463E-02
       2070.          0.4962E-02      0.2462E-02
       2075.          0.4961E-02      0.2461E-02
       2080.          0.4960E-02      0.2459E-02
       2085.          0.4959E-02      0.2458E-02
       2090.          0.4958E-02      0.2457E-02
       2095.          0.4957E-02      0.2456E-02
