#ATLAS 1606.04833, Juni 2016
#201604833_Atlas-H-VV_13.2fb-1.txt
#
#Columns: Mh obs exp (sigma(H) x BR(H -> V V)

500.00   1.03006469727000   1.57303909249000
510.00   0.99873767458500   1.47200167054000
520.00   0.96741065190200   1.37096424859000
530.00   0.93608362922000   1.26992682664000
540.00   0.90475660653700   1.16888940470000
550.00   0.87342958385400   1.06785198275000
560.00   0.84210256117200   0.96681456080000
570.00   0.81077553848900   0.86577713885200
580.00   0.77944851580600   0.76473971690500
590.00   0.74812149312400   0.66370229495700
600.00   0.71679447044100   0.59203403680000
610.00   0.67562571150800   0.56317445656100
620.00   0.63275683793900   0.53431487632100
630.00   0.58988796437100   0.50545529608100
640.00   0.54701909080200   0.47659571584100
650.00   0.50415021723300   0.44773613560100
660.00   0.46128134366500   0.41887655536100
670.00   0.41841247009600   0.39001697512100
680.00   0.37554359652700   0.36116758967600
690.00   0.33267472295900   0.33716267372300
700.00   0.28980584939000   0.31315775777000
710.00   0.27434200968700   0.29860414118900
720.00   0.26767051277400   0.29430174633600
730.00   0.26099901586000   0.28999935148300
740.00   0.25432751894700   0.28188550537600
750.00   0.24765602203400   0.27362027910900
760.00   0.24098452512100   0.26535505284100
770.00   0.23431302820700   0.25708982657400
780.00   0.22764153129400   0.24882460030600
790.00   0.22097003438100   0.24049553847200
800.00   0.21429853746700   0.23146855126200
810.00   0.20802280513400   0.22244156405300
820.00   0.20193186356700   0.21341457684300
830.00   0.19584092200100   0.20438758963400
840.00   0.18974998043400   0.19615588025200
850.00   0.18365903886700   0.18844579621800
860.00   0.17756809730000   0.18073571218500
870.00   0.17147715573400   0.17302562815100
880.00   0.16538621416700   0.16531554411800
890.00   0.15929527260000   0.16051549298300
900.00   0.15320433103300   0.15625372379500
910.00   0.14554982881100   0.15199195460700
920.00   0.13769055354600   0.14773018542000
930.00   0.12983127828200   0.14346841623200
940.00   0.12197200301700   0.13920664704500
950.00   0.11411272775200   0.13494487785700
960.00   0.10625345248800   0.13068310867000
970.00   0.09839417722320   0.12642133948200
980.00   0.09053490195850   0.12215957029400
990.00   0.08267562669390   0.11789780110700
1000.0   0.07481635142930   0.11363603191900
1010.0   0.07385179710350   0.10937426273200
1020.0   0.07466512679350   0.10539308928100
1030.0   0.07547845648350   0.10332347428900
1040.0   0.07629178617350   0.10125385929700
1050.0   0.07710511586350   0.09918424430510
1060.0   0.07791844555350   0.09711462931310
1070.0   0.07873177524340   0.09504501432110
1080.0   0.07954510493340   0.09297539932920
1090.0   0.08035843462340   0.09090578433720
1100.0   0.08117176431340   0.08883616934520
1110.0   0.08198509400340   0.08676655435320
1120.0   0.08279842369340   0.08469693936120
1130.0   0.08361175338330   0.08262732436930
1140.0   0.08442508307330   0.08055770937730
1150.0   0.08523841276330   0.07848809438530
1160.0   0.08605174245330   0.07641847939330
1170.0   0.08686507214330   0.07434886440130
1180.0   0.08767840183330   0.07227924940940
1190.0   0.08849173152330   0.07020963441740
1200.0   0.08930506121320   0.06814001942540
1210.0   0.08869067532850   0.06607040443340
1220.0   0.08736350190790   0.06400078944140
1230.0   0.08603632848730   0.06193117444950
1240.0   0.08470915506670   0.05986155945750
1250.0   0.08338198164610   0.05779194446550
1260.0   0.08205480822550   0.05572232947350
1270.0   0.08072763480490   0.05365271448160
1280.0   0.07940046138430   0.05158309948960
1290.0   0.07807328796380   0.04951348449760
1300.0   0.07674611454320   0.04818021827080
1310.0   0.07541894112260   0.04716253008620
1320.0   0.07409176770200   0.04614484190170
1330.0   0.07276459428140   0.04512715371710
1340.0   0.07143742086080   0.04410946553250
1350.0   0.07011024744020   0.04309177734790
1360.0   0.06878307401960   0.04207408916340
1370.0   0.06745590059900   0.04105640097880
1380.0   0.06612872717850   0.04003871279420
1390.0   0.06480155375790   0.03902102460960
1400.0   0.06347438033730   0.03800333642510
1410.0   0.06286312575030   0.03698564824050
1420.0   0.06242861920440   0.03596796005590
1430.0   0.06199411265860   0.03532420471330
1440.0   0.06155960611280   0.03475867232320
1450.0   0.06112509956700   0.03419313993300
1460.0   0.06069059302110   0.03362760754280
1470.0   0.06025608647530   0.03306207515260
1480.0   0.05982157992950   0.03249654276250
1490.0   0.05938707338370   0.03193101037230
1500.0   0.05895256683790   0.03136547798210
1510.0   0.05851806029200   0.03079994559200
1520.0   0.05808355374620   0.03023441320180
1530.0   0.05764904720040   0.02966888081160
1540.0   0.05721454065460   0.02910334842140
1550.0   0.05678003410880   0.02853781603130
1560.0   0.05634552756290   0.02804153834890
1570.0   0.05591102101710   0.02765045106650
1580.0   0.05547651447130   0.02725936378420
1590.0   0.05504200792550   0.02686827650180
1600.0   0.05460750137970   0.02647718921940
1610.0   0.05308903842260   0.02608610193700
1620.0   0.05150383504960   0.02569501465470
1630.0   0.04991863167660   0.02530392737230
1640.0   0.04833342830360   0.02491284008990
1650.0   0.04674822493060   0.02452175280760
1660.0   0.04516302155750   0.02413066552520
1670.0   0.04357781818450   0.02373957824280
1680.0   0.04199261481150   0.02334849096050
1690.0   0.04040741143850   0.02295740367810
1700.0   0.03882220806550   0.02256631639570
1710.0   0.03723700469250   0.02217522911330
1720.0   0.03565180131940   0.02178414183100
1730.0   0.03406659794640   0.02140030863200
1740.0   0.03248139457340   0.02115145827940
1750.0   0.03089619120040   0.02090260792680
1760.0   0.02931098782740   0.02065375757410
1770.0   0.02772578445440   0.02040490722150
1780.0   0.02614058108130   0.02015605686890
1790.0   0.02455537770830   0.01990720651630
1800.0   0.02297017433530   0.01965835616370
1810.0   0.02237609074220   0.01940950581100
1820.0   0.02205830396760   0.01916065545840
1830.0   0.02174051719300   0.01891180510580
1840.0   0.02142273041840   0.01866295475320
1850.0   0.02110494364370   0.01841410440050
1860.0   0.02078715686910   0.01816525404790
1870.0   0.02046937009450   0.01791640369530
1880.0   0.02015158331980   0.01766755334270
1890.0   0.01983379654520   0.01741870299000
1900.0   0.01951600977060   0.01716985263740
1910.0   0.01919822299600   0.01692100228480
1920.0   0.01888043622130   0.01667215193220
1930.0   0.01856264944670   0.01642330157960
1940.0   0.01824486267210   0.01621548627730
1950.0   0.01792707589740   0.01608421486540
1960.0   0.01760928912280   0.01595294345360
1970.0   0.01729150234820   0.01582167204170
1980.0   0.01697371557350   0.01569040062990
1990.0   0.01665592879890   0.01555912921800
2000.0   0.01633814202430   0.01542785780610
2010.0   0.01602035524970   0.01529658639430
2020.0   0.01570256847500   0.01516531498240
2030.0   0.01538478170040   0.01503404357060
2040.0   0.01506699492580   0.01490277215870
2050.0   0.01474920815110   0.01477150074690
2060.0   0.01443142137650   0.01464022933500
2070.0   0.01411363460190   0.01450895792320
2080.0   0.01379584782730   0.01437768651130
2090.0   0.01347806105260   0.01424641509950
2100.0   0.01316027427800   0.01411514368760
2110.0   0.01284248750340   0.01398387227580
2120.0   0.01252470072870   0.01385260086390
2130.0   0.01220691395410   0.01372132945210
2140.0   0.01188912717950   0.01359005804020
2150.0   0.01157134040490   0.01345878662840
2160.0   0.01125355363020   0.01332751521650
2170.0   0.01093576685560   0.01319624380470
2180.0   0.01061798008100   0.01306497239280
2190.0   0.01030019330630   0.01293370098100
2200.0   0.00998240653171   0.01280242956910
2210.0   0.00980093653964   0.01267115815730
2220.0   0.00966064557564   0.01253988674540
2230.0   0.00952035461163   0.01240861533350
2240.0   0.00938006364762   0.01227734392170
2250.0   0.00923977268361   0.01214607250980
2260.0   0.00909948171961   0.01201480109800
2270.0   0.00895919075560   0.01188352968610
2280.0   0.00881889979159   0.01175225827430
2290.0   0.00867860882759   0.01162098686240
2300.0   0.00853831786358   0.01148971545060
2310.0   0.00839802689957   0.01135844403870
2320.0   0.00825773593557   0.01122717262690
2330.0   0.00811744497156   0.01109590121500
2340.0   0.00797715400755   0.01096462980320
2350.0   0.00783686304354   0.01083335839130
2360.0   0.00769657207954   0.01070208697950
2370.0   0.00755628111553   0.01057081556760
2380.0   0.00741599015152   0.01043954415580
2390.0   0.00727569918752   0.01030827274390
2400.0   0.00713540822351   0.01017700133210
2410.0   0.00711599317407   0.01007965014040
2420.0   0.00710956258058   0.01004419855950
2430.0   0.00710313198709   0.01000874697860
2440.0   0.00709670139359   0.00997329539778
2450.0   0.00709027080010   0.00993784381692
2460.0   0.00708384020661   0.00990239223605
2470.0   0.00707740961311   0.00986694065519
2480.0   0.00707097901962   0.00983148907433
2490.0   0.00706454842612   0.00979603749346
2500.0   0.00705811783263   0.00976058591260
2510.0   0.00705168723914   0.00972513433173
2520.0   0.00704525664564   0.00968968275087
2530.0   0.00703882605215   0.00965423117000
2540.0   0.00703239545865   0.00961877958914
2550.0   0.00702596486516   0.00958332800828
2560.0   0.00701953427167   0.00954787642741
2570.0   0.00701310367817   0.00951242484655
2580.0   0.00700667308468   0.00947697326568
2590.0   0.00700024249118   0.00944152168482
2600.0   0.00699381189769   0.00940607010396
2610.0   0.00698747132059   0.00937061852309
2620.0   0.00698115793593   0.00933516694223
2630.0   0.00697484455128   0.00929971536136
2640.0   0.00696853116663   0.00926426378050
2650.0   0.00696221778197   0.00922881219964
2660.0   0.00695590439732   0.00919336061877
2670.0   0.00694959101266   0.00915790903791
2680.0   0.00694327762801   0.00912245745704
2690.0   0.00693696424336   0.00908700587618
2700.0   0.00693065085870   0.00905155429532
2710.0   0.00692433747405   0.00901610271445
2720.0   0.00691802408940   0.00898065113359
2730.0   0.00691171070474   0.00894519955272
2740.0   0.00690539732009   0.00890974797186
2750.0   0.00689908393544   0.00887429639099
2760.0   0.00689277055078   0.00883884481013
2770.0   0.00688645716613   0.00880339322927
2780.0   0.00688014378148   0.00876794164840
2790.0   0.00687383039682   0.00873249006754
2800.0   0.00686751701217   0.00869703848667
2810.0   0.00683574088787   0.00866158690581
2820.0   0.00678920200616   0.00862613532495
2830.0   0.00674266312444   0.00859068374408
2840.0   0.00669612424273   0.00855523216322
2850.0   0.00664958536101   0.00851978058235
2860.0   0.00660304647929   0.00848432900149
2870.0   0.00655650759758   0.00844887742063
2880.0   0.00650996871586   0.00841342583976
2890.0   0.00646342983414   0.00837797425890
2900.0   0.00641689095243   0.00834252267803
2910.0   0.00637035207071   0.00830707109717
2920.0   0.00632381318900   0.00827161951631
2930.0   0.00627727430728   0.00823616793544
2940.0   0.00623073542556   0.00820071635458
2950.0   0.00618419654385   0.00816526477371
2960.0   0.00613765766213   0.00812981319285
2970.0   0.00609111878042   0.00809436161198
2980.0   0.00604457989870   0.00805891003112
2990.0   0.00599804101698   0.00802345845026
3000.0   0.00595150213527   0.00798800686939
