#ATLAS-CONF-2016-085, Aug. 2016
#20160852_ATLAS_bbh_h_tautau_13.3fb-1
#
#Columns: Mh obs exp (pb, for sigma(pp->h)*BR(h->tau tau) by bb->h)

       200.0           2.061           1.167    
       220.0           1.768          0.9913    
       240.0           1.476          0.8157    
       260.0           1.184          0.6400    
       280.0          0.8914          0.4643    
       300.0          0.5990          0.2886    
       320.0          0.4025          0.2284    
       340.0          0.2061          0.1681    
       360.0          0.1885          0.1510    
       380.0          0.1710          0.1338    
       400.0          0.1535          0.1167    
       420.0          0.1354          0.1073    
       440.0          0.1174          0.9798E-01
       460.0          0.9940E-01      0.8862E-01
       480.0          0.8138E-01      0.7926E-01
       500.0          0.6336E-01      0.6991E-01
       520.0          0.5667E-01      0.6442E-01
       540.0          0.4998E-01      0.5893E-01
       560.0          0.4328E-01      0.5344E-01
       580.0          0.3659E-01      0.4795E-01
       600.0          0.2990E-01      0.4247E-01
       620.0          0.2837E-01      0.3963E-01
       640.0          0.2684E-01      0.3679E-01
       660.0          0.2532E-01      0.3394E-01
       680.0          0.2379E-01      0.3110E-01
       700.0          0.2226E-01      0.2826E-01
       720.0          0.2144E-01      0.2697E-01
       740.0          0.2062E-01      0.2568E-01
       760.0          0.1980E-01      0.2438E-01
       780.0          0.1898E-01      0.2309E-01
       800.0          0.1816E-01      0.2180E-01
       820.0          0.1782E-01      0.2134E-01
       840.0          0.1747E-01      0.2087E-01
       860.0          0.1713E-01      0.2041E-01
       880.0          0.1678E-01      0.1995E-01
       900.0          0.1644E-01      0.1948E-01
       920.0          0.1609E-01      0.1902E-01
       940.0          0.1575E-01      0.1856E-01
       960.0          0.1540E-01      0.1810E-01
       980.0          0.1506E-01      0.1763E-01
       1000.          0.1471E-01      0.1717E-01
       1020.          0.1463E-01      0.1703E-01
       1040.          0.1455E-01      0.1689E-01
       1060.          0.1447E-01      0.1675E-01
       1080.          0.1439E-01      0.1661E-01
       1100.          0.1431E-01      0.1648E-01
       1120.          0.1423E-01      0.1634E-01
       1140.          0.1415E-01      0.1620E-01
       1160.          0.1407E-01      0.1606E-01
       1180.          0.1399E-01      0.1592E-01
       1200.          0.1391E-01      0.1578E-01
