#ATLAS-CONF-2017-050, July 2017
#20170501_Atlas_gg-H-tautau_36.1fb-1
#
#Columns: Mh obs exp (pb, for sigma(pp->h)*BR(h->tau tau) by gg->h)

       200.0          0.8468           1.007    
       210.0          0.7292          0.9335    
       220.0          0.6116          0.8596    
       230.0          0.4941          0.7858    
       240.0          0.3765          0.7119    
       250.0          0.2589          0.6381    
       260.0          0.2415          0.5642    
       270.0          0.2241          0.4903    
       280.0          0.2067          0.4165    
       290.0          0.1893          0.3426    
       300.0          0.1719          0.2688    
       310.0          0.1795          0.2491    
       320.0          0.1870          0.2294    
       330.0          0.1946          0.2097    
       340.0          0.2021          0.1945    
       350.0          0.2097          0.1793    
       360.0          0.2003          0.1641    
       370.0          0.1909          0.1489    
       380.0          0.1814          0.1338    
       390.0          0.1720          0.1186    
       400.0          0.1626          0.1034    
       410.0          0.1542          0.9844E-01
       420.0          0.1458          0.9349E-01
       430.0          0.1374          0.8854E-01
       440.0          0.1290          0.8359E-01
       450.0          0.1206          0.7864E-01
       460.0          0.1123          0.7369E-01
       470.0          0.1039          0.6875E-01
       480.0          0.9547E-01      0.6380E-01
       490.0          0.8708E-01      0.5885E-01
       500.0          0.7869E-01      0.5390E-01
       510.0          0.7592E-01      0.5202E-01
       520.0          0.7315E-01      0.5015E-01
       530.0          0.7038E-01      0.4827E-01
       540.0          0.6760E-01      0.4639E-01
       550.0          0.6483E-01      0.4452E-01
       560.0          0.6206E-01      0.4264E-01
       570.0          0.5929E-01      0.4076E-01
       580.0          0.5652E-01      0.3888E-01
       590.0          0.5374E-01      0.3701E-01
       600.0          0.5097E-01      0.3513E-01
       610.0          0.4862E-01      0.3395E-01
       620.0          0.4626E-01      0.3277E-01
       630.0          0.4390E-01      0.3159E-01
       640.0          0.4155E-01      0.3041E-01
       650.0          0.3919E-01      0.2923E-01
       660.0          0.3684E-01      0.2805E-01
       670.0          0.3448E-01      0.2687E-01
       680.0          0.3212E-01      0.2569E-01
       690.0          0.2977E-01      0.2451E-01
       700.0          0.2741E-01      0.2333E-01
       710.0          0.2623E-01      0.2269E-01
       720.0          0.2505E-01      0.2204E-01
       730.0          0.2386E-01      0.2140E-01
       740.0          0.2268E-01      0.2076E-01
       750.0          0.2150E-01      0.2011E-01
       760.0          0.2032E-01      0.1947E-01
       770.0          0.1913E-01      0.1883E-01
       780.0          0.1795E-01      0.1818E-01
       790.0          0.1677E-01      0.1754E-01
       800.0          0.1559E-01      0.1690E-01
       810.0          0.1532E-01      0.1661E-01
       820.0          0.1505E-01      0.1633E-01
       830.0          0.1478E-01      0.1604E-01
       840.0          0.1451E-01      0.1576E-01
       850.0          0.1425E-01      0.1548E-01
       860.0          0.1398E-01      0.1519E-01
       870.0          0.1371E-01      0.1491E-01
       880.0          0.1344E-01      0.1463E-01
       890.0          0.1317E-01      0.1434E-01
       900.0          0.1291E-01      0.1406E-01
       910.0          0.1264E-01      0.1377E-01
       920.0          0.1237E-01      0.1349E-01
       930.0          0.1210E-01      0.1321E-01
       940.0          0.1183E-01      0.1292E-01
       950.0          0.1156E-01      0.1264E-01
       960.0          0.1130E-01      0.1236E-01
       970.0          0.1103E-01      0.1207E-01
       980.0          0.1076E-01      0.1179E-01
       990.0          0.1049E-01      0.1150E-01
       1000.          0.1022E-01      0.1122E-01
       1010.          0.1010E-01      0.1105E-01
       1020.          0.9969E-02      0.1087E-01
       1030.          0.9842E-02      0.1070E-01
       1040.          0.9715E-02      0.1052E-01
       1050.          0.9588E-02      0.1035E-01
       1060.          0.9462E-02      0.1017E-01
       1070.          0.9335E-02      0.9999E-02
       1080.          0.9208E-02      0.9825E-02
       1090.          0.9081E-02      0.9651E-02
       1100.          0.8954E-02      0.9476E-02
       1110.          0.8827E-02      0.9302E-02
       1120.          0.8700E-02      0.9128E-02
       1130.          0.8573E-02      0.8953E-02
       1140.          0.8446E-02      0.8779E-02
       1150.          0.8319E-02      0.8605E-02
       1160.          0.8193E-02      0.8430E-02
       1170.          0.8066E-02      0.8256E-02
       1180.          0.7939E-02      0.8082E-02
       1190.          0.7812E-02      0.7907E-02
       1200.          0.7685E-02      0.7733E-02
       1210.          0.7621E-02      0.7669E-02
       1220.          0.7558E-02      0.7605E-02
       1230.          0.7494E-02      0.7541E-02
       1240.          0.7431E-02      0.7477E-02
       1250.          0.7367E-02      0.7413E-02
       1260.          0.7303E-02      0.7349E-02
       1270.          0.7240E-02      0.7285E-02
       1280.          0.7176E-02      0.7221E-02
       1290.          0.7113E-02      0.7157E-02
       1300.          0.7049E-02      0.7093E-02
       1310.          0.6985E-02      0.7029E-02
       1320.          0.6922E-02      0.6965E-02
       1330.          0.6858E-02      0.6901E-02
       1340.          0.6795E-02      0.6837E-02
       1350.          0.6731E-02      0.6773E-02
       1360.          0.6668E-02      0.6709E-02
       1370.          0.6604E-02      0.6645E-02
       1380.          0.6540E-02      0.6581E-02
       1390.          0.6477E-02      0.6517E-02
       1400.          0.6413E-02      0.6453E-02
       1410.          0.6350E-02      0.6389E-02
       1420.          0.6286E-02      0.6325E-02
       1430.          0.6222E-02      0.6261E-02
       1440.          0.6159E-02      0.6197E-02
       1450.          0.6095E-02      0.6133E-02
       1460.          0.6032E-02      0.6069E-02
       1470.          0.5968E-02      0.6005E-02
       1480.          0.5904E-02      0.5941E-02
       1490.          0.5841E-02      0.5877E-02
       1500.          0.5777E-02      0.5813E-02
       1510.          0.5776E-02      0.5806E-02
       1520.          0.5774E-02      0.5799E-02
       1530.          0.5773E-02      0.5792E-02
       1540.          0.5771E-02      0.5785E-02
       1550.          0.5770E-02      0.5778E-02
       1560.          0.5769E-02      0.5771E-02
       1570.          0.5767E-02      0.5763E-02
       1580.          0.5766E-02      0.5756E-02
       1590.          0.5764E-02      0.5749E-02
       1600.          0.5763E-02      0.5742E-02
       1610.          0.5761E-02      0.5735E-02
       1620.          0.5760E-02      0.5728E-02
       1630.          0.5759E-02      0.5721E-02
       1640.          0.5757E-02      0.5714E-02
       1650.          0.5756E-02      0.5707E-02
       1660.          0.5754E-02      0.5700E-02
       1670.          0.5753E-02      0.5692E-02
       1680.          0.5751E-02      0.5685E-02
       1690.          0.5750E-02      0.5678E-02
       1700.          0.5749E-02      0.5671E-02
       1710.          0.5747E-02      0.5664E-02
       1720.          0.5746E-02      0.5657E-02
       1730.          0.5744E-02      0.5650E-02
       1740.          0.5743E-02      0.5643E-02
       1750.          0.5741E-02      0.5636E-02
       1760.          0.5752E-02      0.5647E-02
       1770.          0.5762E-02      0.5659E-02
       1780.          0.5772E-02      0.5670E-02
       1790.          0.5782E-02      0.5681E-02
       1800.          0.5792E-02      0.5693E-02
       1810.          0.5803E-02      0.5704E-02
       1820.          0.5813E-02      0.5716E-02
       1830.          0.5823E-02      0.5727E-02
       1840.          0.5833E-02      0.5739E-02
       1850.          0.5843E-02      0.5750E-02
       1860.          0.5854E-02      0.5762E-02
       1870.          0.5864E-02      0.5773E-02
       1880.          0.5874E-02      0.5785E-02
       1890.          0.5884E-02      0.5796E-02
       1900.          0.5894E-02      0.5808E-02
       1910.          0.5905E-02      0.5819E-02
       1920.          0.5915E-02      0.5831E-02
       1930.          0.5925E-02      0.5842E-02
       1940.          0.5935E-02      0.5854E-02
       1950.          0.5945E-02      0.5865E-02
       1960.          0.5956E-02      0.5876E-02
       1970.          0.5966E-02      0.5888E-02
       1980.          0.5976E-02      0.5899E-02
       1990.          0.5986E-02      0.5911E-02
       2000.          0.5996E-02      0.5922E-02
       2010.          0.6021E-02      0.5949E-02
       2020.          0.6046E-02      0.5975E-02
       2030.          0.6071E-02      0.6001E-02
       2040.          0.6096E-02      0.6028E-02
       2050.          0.6121E-02      0.6054E-02
       2060.          0.6146E-02      0.6080E-02
       2070.          0.6171E-02      0.6107E-02
       2080.          0.6197E-02      0.6133E-02
       2090.          0.6222E-02      0.6159E-02
       2100.          0.6247E-02      0.6186E-02
       2110.          0.6272E-02      0.6212E-02
       2120.          0.6297E-02      0.6239E-02
       2130.          0.6322E-02      0.6265E-02
       2140.          0.6347E-02      0.6291E-02
       2150.          0.6372E-02      0.6318E-02
       2160.          0.6397E-02      0.6344E-02
       2170.          0.6422E-02      0.6370E-02
       2180.          0.6447E-02      0.6397E-02
       2190.          0.6472E-02      0.6423E-02
       2200.          0.6497E-02      0.6449E-02
       2210.          0.6522E-02      0.6476E-02
       2220.          0.6547E-02      0.6502E-02
       2230.          0.6572E-02      0.6528E-02
       2240.          0.6597E-02      0.6555E-02
       2250.          0.6622E-02      0.6581E-02
