   MHSM        BB       TAU TAU     MU MU         SS         CC         TT 
_______________________________________________________________________________
NaNs replaced with -1 (not all fortran compilers can currently read in NaNs)
         120.00  0.6540000      0.6980000E-01  0.2420000E-03  0.2790000E-03  0.3240000E-01   0.000000    
         120.10  0.6526000      0.6968000E-01  0.2416000E-03  0.2784000E-03  0.3234000E-01   0.000000    
         120.20  0.6512000      0.6956000E-01  0.2412000E-03  0.2778000E-03  0.3228000E-01   0.000000    
         120.30  0.6498000      0.6944000E-01  0.2408000E-03  0.2772000E-03  0.3222000E-01   0.000000    
         120.40  0.6484000      0.6932000E-01  0.2404000E-03  0.2766000E-03  0.3216000E-01   0.000000    
         120.50  0.6470000      0.6920000E-01  0.2400000E-03  0.2760000E-03  0.3210000E-01   0.000000    
         120.60  0.6458000      0.6906000E-01  0.2396000E-03  0.2754000E-03  0.3204000E-01   0.000000    
         120.70  0.6446000      0.6892000E-01  0.2392000E-03  0.2748000E-03  0.3198000E-01   0.000000    
         120.80  0.6434000      0.6878000E-01  0.2388000E-03  0.2742000E-03  0.3192000E-01   0.000000    
         120.90  0.6422000      0.6864000E-01  0.2384000E-03  0.2736000E-03  0.3186000E-01   0.000000    
         121.00  0.6410000      0.6850000E-01  0.2380000E-03  0.2730000E-03  0.3180000E-01   0.000000    
         121.10  0.6396000      0.6838000E-01  0.2376000E-03  0.2724000E-03  0.3174000E-01   0.000000    
         121.20  0.6382000      0.6826000E-01  0.2372000E-03  0.2718000E-03  0.3168000E-01   0.000000    
         121.30  0.6368000      0.6814000E-01  0.2368000E-03  0.2712000E-03  0.3162000E-01   0.000000    
         121.40  0.6354000      0.6802000E-01  0.2364000E-03  0.2706000E-03  0.3156000E-01   0.000000    
         121.50  0.6340000      0.6790000E-01  0.2360000E-03  0.2700000E-03  0.3150000E-01   0.000000    
         121.60  0.6326000      0.6776000E-01  0.2354000E-03  0.2694000E-03  0.3142000E-01   0.000000    
         121.70  0.6312000      0.6762000E-01  0.2348000E-03  0.2688000E-03  0.3134000E-01   0.000000    
         121.80  0.6298000      0.6748000E-01  0.2342000E-03  0.2682000E-03  0.3126000E-01   0.000000    
         121.90  0.6284000      0.6734000E-01  0.2336000E-03  0.2676000E-03  0.3118000E-01   0.000000    
         122.00  0.6270000      0.6720000E-01  0.2330000E-03  0.2670000E-03  0.3110000E-01   0.000000    
         122.10  0.6256000      0.6706000E-01  0.2326000E-03  0.2664000E-03  0.3104000E-01   0.000000    
         122.20  0.6242000      0.6692000E-01  0.2322000E-03  0.2658000E-03  0.3098000E-01   0.000000    
         122.30  0.6228000      0.6678000E-01  0.2318000E-03  0.2652000E-03  0.3092000E-01   0.000000    
         122.40  0.6214000      0.6664000E-01  0.2314000E-03  0.2646000E-03  0.3086000E-01   0.000000    
         122.50  0.6200000      0.6650000E-01  0.2310000E-03  0.2640000E-03  0.3080000E-01   0.000000    
         122.60  0.6186000      0.6636000E-01  0.2304000E-03  0.2634000E-03  0.3072000E-01   0.000000    
         122.70  0.6172000      0.6622000E-01  0.2298000E-03  0.2628000E-03  0.3064000E-01   0.000000    
         122.80  0.6158000      0.6608000E-01  0.2292000E-03  0.2622000E-03  0.3056000E-01   0.000000    
         122.90  0.6144000      0.6594000E-01  0.2286000E-03  0.2616000E-03  0.3048000E-01   0.000000    
         123.00  0.6130000      0.6580000E-01  0.2280000E-03  0.2610000E-03  0.3040000E-01   0.000000    
         123.10  0.6114000      0.6564000E-01  0.2276000E-03  0.2604000E-03  0.3034000E-01   0.000000    
         123.20  0.6098000      0.6548000E-01  0.2272000E-03  0.2598000E-03  0.3028000E-01   0.000000    
         123.30  0.6082000      0.6532000E-01  0.2268000E-03  0.2592000E-03  0.3022000E-01   0.000000    
         123.40  0.6066000      0.6516000E-01  0.2264000E-03  0.2586000E-03  0.3016000E-01   0.000000    
         123.50  0.6050000      0.6500000E-01  0.2260000E-03  0.2580000E-03  0.3010000E-01   0.000000    
         123.60  0.6036000      0.6486000E-01  0.2254000E-03  0.2574000E-03  0.3002000E-01   0.000000    
         123.70  0.6022000      0.6472000E-01  0.2248000E-03  0.2568000E-03  0.2994000E-01   0.000000    
         123.80  0.6008000      0.6458000E-01  0.2242000E-03  0.2562000E-03  0.2986000E-01   0.000000    
         123.90  0.5994000      0.6444000E-01  0.2236000E-03  0.2556000E-03  0.2978000E-01   0.000000    
         124.00  0.5980000      0.6430000E-01  0.2230000E-03  0.2550000E-03  0.2970000E-01   0.000000    
         124.10  0.5960000      0.6410000E-01  0.2220000E-03  0.2540000E-03  0.2960000E-01   0.000000    
         124.20  0.5950000      0.6400000E-01  0.2220000E-03  0.2540000E-03  0.2950000E-01   0.000000    
         124.30  0.5930000      0.6380000E-01  0.2210000E-03  0.2530000E-03  0.2950000E-01   0.000000    
         124.40  0.5920000      0.6370000E-01  0.2210000E-03  0.2520000E-03  0.2940000E-01   0.000000    
         124.50  0.5900000      0.6350000E-01  0.2200000E-03  0.2520000E-03  0.2930000E-01   0.000000    
         124.60  0.5890000      0.6330000E-01  0.2200000E-03  0.2510000E-03  0.2920000E-01   0.000000    
         124.70  0.5870000      0.6320000E-01  0.2190000E-03  0.2500000E-03  0.2910000E-01   0.000000    
         124.80  0.5850000      0.6300000E-01  0.2190000E-03  0.2500000E-03  0.2910000E-01   0.000000    
         124.90  0.5840000      0.6290000E-01  0.2180000E-03  0.2490000E-03  0.2900000E-01   0.000000    
         125.00  0.5820000      0.6270000E-01  0.2180000E-03  0.2480000E-03  0.2890000E-01   0.000000    
         125.10  0.5810000      0.6260000E-01  0.2170000E-03  0.2480000E-03  0.2880000E-01   0.000000    
         125.20  0.5790000      0.6240000E-01  0.2170000E-03  0.2470000E-03  0.2880000E-01   0.000000    
         125.30  0.5780000      0.6220000E-01  0.2160000E-03  0.2460000E-03  0.2870000E-01   0.000000    
         125.40  0.5760000      0.6210000E-01  0.2150000E-03  0.2460000E-03  0.2860000E-01   0.000000    
         125.50  0.5740000      0.6190000E-01  0.2150000E-03  0.2450000E-03  0.2850000E-01   0.000000    
         125.60  0.5730000      0.6170000E-01  0.2140000E-03  0.2440000E-03  0.2840000E-01   0.000000    
         125.70  0.5710000      0.6160000E-01  0.2140000E-03  0.2440000E-03  0.2840000E-01   0.000000    
         125.80  0.5700000      0.6140000E-01  0.2130000E-03  0.2430000E-03  0.2830000E-01   0.000000    
         125.90  0.5680000      0.6130000E-01  0.2130000E-03  0.2420000E-03  0.2820000E-01   0.000000    
         126.00  0.5660000      0.6110000E-01  0.2120000E-03  0.2420000E-03  0.2810000E-01   0.000000    
         126.10  0.5644000      0.6094000E-01  0.2114000E-03  0.2412000E-03  0.2802000E-01   0.000000    
         126.20  0.5628000      0.6078000E-01  0.2108000E-03  0.2404000E-03  0.2794000E-01   0.000000    
         126.30  0.5612000      0.6062000E-01  0.2102000E-03  0.2396000E-03  0.2786000E-01   0.000000    
         126.40  0.5596000      0.6046000E-01  0.2096000E-03  0.2388000E-03  0.2778000E-01   0.000000    
         126.50  0.5580000      0.6030000E-01  0.2090000E-03  0.2380000E-03  0.2770000E-01   0.000000    
         126.60  0.5564000      0.6012000E-01  0.2084000E-03  0.2374000E-03  0.2762000E-01   0.000000    
         126.70  0.5548000      0.5994000E-01  0.2078000E-03  0.2368000E-03  0.2754000E-01   0.000000    
         126.80  0.5532000      0.5976000E-01  0.2072000E-03  0.2362000E-03  0.2746000E-01   0.000000    
         126.90  0.5516000      0.5958000E-01  0.2066000E-03  0.2356000E-03  0.2738000E-01   0.000000    
         127.00  0.5500000      0.5940000E-01  0.2060000E-03  0.2350000E-03  0.2730000E-01   0.000000    
         127.10  0.5484000      0.5924000E-01  0.2054000E-03  0.2342000E-03  0.2722000E-01   0.000000    
         127.20  0.5468000      0.5908000E-01  0.2048000E-03  0.2334000E-03  0.2714000E-01   0.000000    
         127.30  0.5452000      0.5892000E-01  0.2042000E-03  0.2326000E-03  0.2706000E-01   0.000000    
         127.40  0.5436000      0.5876000E-01  0.2036000E-03  0.2318000E-03  0.2698000E-01   0.000000    
         127.50  0.5420000      0.5860000E-01  0.2030000E-03  0.2310000E-03  0.2690000E-01   0.000000    
         127.60  0.5402000      0.5842000E-01  0.2024000E-03  0.2304000E-03  0.2682000E-01   0.000000    
         127.70  0.5384000      0.5824000E-01  0.2018000E-03  0.2298000E-03  0.2674000E-01   0.000000    
         127.80  0.5366000      0.5806000E-01  0.2012000E-03  0.2292000E-03  0.2666000E-01   0.000000    
         127.90  0.5348000      0.5788000E-01  0.2006000E-03  0.2286000E-03  0.2658000E-01   0.000000    
         128.00  0.5330000      0.5770000E-01  0.2000000E-03  0.2280000E-03  0.2650000E-01   0.000000    
         128.10  0.5314000      0.5752000E-01  0.1994000E-03  0.2272000E-03  0.2642000E-01   0.000000    
         128.20  0.5298000      0.5734000E-01  0.1988000E-03  0.2264000E-03  0.2634000E-01   0.000000    
         128.30  0.5282000      0.5716000E-01  0.1982000E-03  0.2256000E-03  0.2626000E-01   0.000000    
         128.40  0.5266000      0.5698000E-01  0.1976000E-03  0.2248000E-03  0.2618000E-01   0.000000    
         128.50  0.5250000      0.5680000E-01  0.1970000E-03  0.2240000E-03  0.2610000E-01   0.000000    
         128.60  0.5232000      0.5662000E-01  0.1964000E-03  0.2232000E-03  0.2600000E-01   0.000000    
         128.70  0.5214000      0.5644000E-01  0.1958000E-03  0.2224000E-03  0.2590000E-01   0.000000    
         128.80  0.5196000      0.5626000E-01  0.1952000E-03  0.2216000E-03  0.2580000E-01   0.000000    
         128.90  0.5178000      0.5608000E-01  0.1946000E-03  0.2208000E-03  0.2570000E-01   0.000000    
         129.00  0.5160000      0.5590000E-01  0.1940000E-03  0.2200000E-03  0.2560000E-01   0.000000    
         129.10  0.5142000      0.5572000E-01  0.1934000E-03  0.2192000E-03  0.2552000E-01   0.000000    
         129.20  0.5124000      0.5554000E-01  0.1928000E-03  0.2184000E-03  0.2544000E-01   0.000000    
         129.30  0.5106000      0.5536000E-01  0.1922000E-03  0.2176000E-03  0.2536000E-01   0.000000    
         129.40  0.5088000      0.5518000E-01  0.1916000E-03  0.2168000E-03  0.2528000E-01   0.000000    
         129.50  0.5070000      0.5500000E-01  0.1910000E-03  0.2160000E-03  0.2520000E-01   0.000000    
         129.60  0.5052000      0.5482000E-01  0.1904000E-03  0.2154000E-03  0.2512000E-01   0.000000    
         129.70  0.5034000      0.5464000E-01  0.1898000E-03  0.2148000E-03  0.2504000E-01   0.000000    
         129.80  0.5016000      0.5446000E-01  0.1892000E-03  0.2142000E-03  0.2496000E-01   0.000000    
         129.90  0.4998000      0.5428000E-01  0.1886000E-03  0.2136000E-03  0.2488000E-01   0.000000    
         130.00  0.4980000      0.5410000E-01  0.1880000E-03  0.2130000E-03  0.2480000E-01   0.000000    
